!Material	MoCr-PVInew	
!		
!Wavelength	Refractive Index	Extinction Coefficient

192.62	1.44701	2.38306
194.21	1.45526	2.40438
195.8	1.46365	2.42591
197.38	1.4722	2.44765
198.97	1.48093	2.4696
200.56	1.48986	2.49176
202.15	1.49901	2.51411
203.74	1.5084	2.53665
205.32	1.51804	2.55937
206.91	1.52796	2.58227
208.5	1.53818	2.60533
210.09	1.5487	2.62854
211.68	1.55955	2.65189
213.26	1.57075	2.67538
214.85	1.5823	2.69899
216.44	1.59423	2.7227
218.03	1.60654	2.7465
219.62	1.61926	2.77038
221.2	1.63239	2.79431
222.79	1.64596	2.81829
224.38	1.65997	2.8423
225.97	1.67443	2.86632
227.56	1.68935	2.89032
229.14	1.70476	2.9143
230.73	1.72065	2.93822
232.32	1.73704	2.96208
233.91	1.75393	2.98584
235.49	1.77134	3.00948
237.08	1.78926	3.03299
238.67	1.80771	3.05632
240.26	1.82669	3.07947
241.85	1.8462	3.1024
243.43	1.86625	3.12509
245.02	1.88684	3.1475
246.61	1.90796	3.16962
248.2	1.92962	3.1914
249.78	1.95181	3.21282
251.37	1.97452	3.23385
252.96	1.99776	3.25447
254.55	2.0215	3.27462
256.13	2.04574	3.29429
257.72	2.07046	3.31345
259.31	2.09565	3.33206
260.9	2.12129	3.35009
262.48	2.14736	3.36751
264.07	2.17383	3.38428
265.66	2.20069	3.40039
267.25	2.2279	3.41581
268.83	2.25543	3.43049
270.42	2.28325	3.44443
272.01	2.31132	3.45759
273.59	2.33961	3.46996
275.18	2.36808	3.48152
276.77	2.39668	3.49224
278.36	2.42538	3.50212
279.94	2.45412	3.51115
281.53	2.48286	3.51932
283.12	2.51155	3.52663
284.71	2.54015	3.53306
286.29	2.56861	3.53864
287.88	2.59688	3.54336
289.47	2.62491	3.54724
291.06	2.65266	3.55029
292.64	2.68007	3.55253
294.23	2.70711	3.55398
295.82	2.73373	3.55467
297.4	2.7599	3.55462
298.99	2.78557	3.55387
300.58	2.81071	3.55245
302.17	2.83529	3.55039
303.75	2.85927	3.54774
305.34	2.88264	3.54453
306.93	2.90537	3.54081
308.51	2.92744	3.53662
310.1	2.94883	3.532
311.69	2.96954	3.52699
313.27	2.98955	3.52165
314.86	3.00886	3.51601
316.45	3.02748	3.51012
318.04	3.04539	3.50402
319.62	3.06261	3.49774
321.21	3.07914	3.49134
322.8	3.09499	3.48484
324.38	3.11018	3.47829
325.97	3.12472	3.47171
327.56	3.13862	3.46515
329.14	3.1519	3.45863
330.73	3.16459	3.45218
332.32	3.1767	3.44583
333.91	3.18825	3.43959
335.49	3.19927	3.4335
337.08	3.20978	3.42757
338.67	3.2198	3.42182
340.25	3.22936	3.41627
341.84	3.23847	3.41092
343.43	3.24718	3.4058
345.01	3.25549	3.40091
346.6	3.26343	3.39626
348.19	3.27102	3.39185
349.77	3.27828	3.38769
351.36	3.28525	3.38379
352.95	3.29193	3.38016
354.53	3.29835	3.37677
356.12	3.30453	3.37365
357.71	3.31049	3.37079
359.29	3.31624	3.36819
360.88	3.3218	3.36584
362.47	3.3272	3.36374
364.05	3.33243	3.36189
365.64	3.33753	3.36029
367.23	3.3425	3.35892
368.81	3.34736	3.35779
370.4	3.35212	3.35689
371.99	3.35678	3.35621
373.57	3.36137	3.35574
375.16	3.3659	3.35548
376.75	3.37036	3.35543
378.33	3.37478	3.35557
379.92	3.37916	3.3559
381.51	3.3835	3.35641
383.09	3.38782	3.3571
384.68	3.39212	3.35795
386.27	3.39641	3.35897
387.85	3.40069	3.36014
389.44	3.40497	3.36146
391.03	3.40925	3.36292
392.61	3.41353	3.36451
394.2	3.41783	3.36622
395.79	3.42214	3.36806
397.37	3.42647	3.37002
398.96	3.43082	3.37208
400.54	3.43519	3.37424
402.13	3.43958	3.3765
403.72	3.444	3.37885
405.3	3.44844	3.38129
406.89	3.45292	3.3838
408.48	3.45742	3.38639
410.06	3.46196	3.38905
411.65	3.46652	3.39178
413.24	3.47112	3.39456
414.82	3.47575	3.3974
416.41	3.48041	3.40029
417.99	3.4851	3.40322
419.58	3.48982	3.4062
421.17	3.49458	3.40922
422.75	3.49936	3.41227
424.34	3.50418	3.41535
425.92	3.50902	3.41846
427.51	3.51389	3.4216
429.1	3.5188	3.42476
430.68	3.52373	3.42793
432.27	3.52868	3.43112
433.86	3.53366	3.43432
435.44	3.53867	3.43753
437.03	3.5437	3.44075
438.61	3.54875	3.44398
440.2	3.55382	3.4472
441.79	3.55892	3.45043
443.37	3.56403	3.45365
444.96	3.56916	3.45688
446.54	3.57431	3.46009
448.13	3.57947	3.4633
449.71	3.58464	3.4665
451.3	3.58983	3.46969
452.89	3.59503	3.47287
454.47	3.60024	3.47603
456.06	3.60546	3.47918
457.64	3.61068	3.48231
459.23	3.61592	3.48543
460.81	3.62115	3.48853
462.4	3.62639	3.4916
463.99	3.63164	3.49466
465.57	3.63688	3.4977
467.16	3.64213	3.50071
468.74	3.64737	3.50371
470.33	3.65261	3.50668
471.91	3.65785	3.50962
473.5	3.66309	3.51254
475.09	3.66831	3.51544
476.67	3.67353	3.51831
478.26	3.67874	3.52115
479.84	3.68395	3.52397
481.43	3.68914	3.52676
483.01	3.69432	3.52952
484.6	3.69949	3.53226
486.18	3.70464	3.53497
487.77	3.70978	3.53765
489.35	3.7149	3.5403
490.94	3.72001	3.54293
492.52	3.7251	3.54552
494.11	3.73017	3.54809
495.69	3.73522	3.55063
497.28	3.74025	3.55314
498.86	3.74526	3.55563
500.45	3.75024	3.55809
502.03	3.75521	3.56051
503.62	3.76015	3.56291
505.2	3.76506	3.56529
506.79	3.76995	3.56763
508.37	3.77481	3.56995
509.96	3.77965	3.57224
511.54	3.78446	3.5745
513.13	3.78923	3.57674
514.71	3.79399	3.57895
516.3	3.79871	3.58114
517.88	3.8034	3.58329
519.47	3.80805	3.58543
521.05	3.81268	3.58753
522.64	3.81727	3.58962
524.22	3.82184	3.59167
525.81	3.82636	3.59371
527.39	3.83086	3.59572
528.98	3.83531	3.5977
530.56	3.83974	3.59966
532.14	3.84413	3.6016
533.73	3.84848	3.60352
535.31	3.85279	3.60542
536.9	3.85707	3.60729
538.48	3.86131	3.60914
540.07	3.86551	3.61097
541.65	3.86968	3.61278
543.23	3.8738	3.61457
544.82	3.87789	3.61634
546.4	3.88194	3.61809
547.99	3.88594	3.61983
549.57	3.88991	3.62154
551.16	3.89384	3.62324
552.74	3.89772	3.62492
554.32	3.90157	3.62658
555.91	3.90537	3.62823
557.49	3.90913	3.62986
559.07	3.91285	3.63148
560.66	3.91653	3.63308
562.24	3.92017	3.63466
563.83	3.92376	3.63623
565.41	3.92731	3.63779
566.99	3.93082	3.63934
568.58	3.93428	3.64087
570.16	3.9377	3.64239
571.74	3.94108	3.6439
573.33	3.94442	3.64539
574.91	3.94771	3.64688
576.49	3.95095	3.64836
578.08	3.95416	3.64982
579.66	3.95732	3.65128
581.24	3.96043	3.65273
582.83	3.9635	3.65417
584.41	3.96653	3.6556
585.99	3.96951	3.65702
587.57	3.97245	3.65844
589.16	3.97534	3.65985
590.74	3.97819	3.66125
592.32	3.98099	3.66265
593.91	3.98375	3.66404
595.49	3.98647	3.66543
597.07	3.98913	3.66682
598.65	3.99176	3.6682
600.24	3.99434	3.66957
601.82	3.99688	3.67095
603.4	3.99937	3.67232
604.98	4.00182	3.67369
606.57	4.00422	3.67506
608.15	4.00658	3.67642
609.73	4.00889	3.67779
611.31	4.01116	3.67915
612.89	4.01338	3.68052
614.48	4.01556	3.68188
616.06	4.0177	3.68325
617.64	4.01979	3.68462
619.22	4.02184	3.68598
620.8	4.02385	3.68736
622.39	4.02581	3.68873
623.97	4.02772	3.69011
625.55	4.0296	3.69149
627.13	4.03143	3.69287
628.71	4.03321	3.69426
630.29	4.03495	3.69565
631.87	4.03665	3.69704
633.46	4.03831	3.69845
635.04	4.03993	3.69985
636.62	4.0415	3.70127
638.2	4.04302	3.70269
639.78	4.04451	3.70411
641.36	4.04595	3.70554
642.94	4.04735	3.70698
644.52	4.04871	3.70843
646.1	4.05003	3.70989
647.68	4.05131	3.71135
649.27	4.05254	3.71283
650.85	4.05373	3.71431
652.43	4.05488	3.7158
654.01	4.05599	3.7173
655.59	4.05706	3.71881
657.17	4.05809	3.72034
658.75	4.05908	3.72187
660.33	4.06002	3.72341
661.91	4.06093	3.72497
663.49	4.0618	3.72653
665.07	4.06263	3.72811
666.65	4.06342	3.7297
668.23	4.06416	3.73131
669.81	4.06487	3.73292
671.39	4.06554	3.73455
672.97	4.06618	3.73619
674.55	4.06677	3.73785
676.12	4.06732	3.73952
677.7	4.06784	3.74121
679.28	4.06832	3.74291
680.86	4.06876	3.74462
682.44	4.06917	3.74635
684.02	4.06953	3.74809
685.6	4.06986	3.74985
687.18	4.07015	3.75163
688.76	4.07041	3.75342
690.33	4.07063	3.75523
691.91	4.07081	3.75705
693.49	4.07096	3.75889
695.07	4.07107	3.76075
696.65	4.07115	3.76263
698.23	4.07119	3.76452
699.8	4.0712	3.76643
701.38	4.07117	3.76836
702.96	4.07111	3.77031
704.54	4.07101	3.77228
706.12	4.07088	3.77426
707.69	4.07071	3.77627
709.27	4.07051	3.77829
710.85	4.07028	3.78033
712.43	4.07002	3.78239
714	4.06972	3.78447
715.58	4.06939	3.78657
717.16	4.06903	3.7887
718.73	4.06863	3.79084
720.31	4.06821	3.793
721.89	4.06775	3.79518
723.46	4.06726	3.79738
725.04	4.06674	3.79961
726.62	4.06619	3.80185
728.19	4.06561	3.80412
729.77	4.06499	3.80641
731.35	4.06435	3.80872
732.92	4.06368	3.81105
734.5	4.06298	3.8134
736.07	4.06225	3.81578
737.65	4.06149	3.81818
739.22	4.0607	3.8206
740.8	4.05988	3.82304
742.37	4.05904	3.82551
743.95	4.05816	3.828
745.53	4.05726	3.83051
747.1	4.05633	3.83305
748.68	4.05538	3.83561
750.25	4.05439	3.83819
751.82	4.05338	3.84079
753.4	4.05235	3.84342
754.97	4.05129	3.84608
756.55	4.0502	3.84876
758.12	4.04908	3.85146
759.7	4.04795	3.85418
761.27	4.04678	3.85693
762.84	4.04559	3.85971
764.42	4.04438	3.86251
765.99	4.04314	3.86533
767.57	4.04187	3.86818
769.14	4.04059	3.87106
770.71	4.03928	3.87396
772.29	4.03794	3.87688
773.86	4.03658	3.87983
775.43	4.0352	3.8828
777	4.0338	3.88581
778.58	4.03238	3.88883
780.15	4.03093	3.89188
781.72	4.02946	3.89496
783.29	4.02797	3.89806
784.87	4.02646	3.90119
786.44	4.02493	3.90434
788.01	4.02337	3.90753
789.58	4.0218	3.91073
791.15	4.0202	3.91396
792.72	4.01859	3.91722
794.3	4.01695	3.92051
795.87	4.0153	3.92382
797.44	4.01362	3.92716
799.01	4.01193	3.93052
800.58	4.01022	3.93391
802.15	4.00849	3.93733
803.72	4.00674	3.94077
805.29	4.00497	3.94424
806.86	4.00319	3.94774
808.43	4.00139	3.95127
810	3.99957	3.95482
811.57	3.99773	3.9584
813.14	3.99588	3.962
814.71	3.99401	3.96563
816.28	3.99212	3.96929
817.85	3.99022	3.97298
819.42	3.9883	3.97669
820.99	3.98637	3.98043
822.56	3.98442	3.9842
824.12	3.98246	3.98799
825.69	3.98048	3.99181
827.26	3.97849	3.99566
828.83	3.97648	3.99954
830.4	3.97446	4.00344
831.97	3.97242	4.00737
833.53	3.97037	4.01133
835.1	3.96831	4.01531
836.67	3.96624	4.01932
838.24	3.96415	4.02336
839.8	3.96204	4.02743
841.37	3.95993	4.03152
842.94	3.95781	4.03564
844.5	3.95567	4.03979
846.07	3.95352	4.04397
847.64	3.95136	4.04817
849.2	3.94919	4.0524
850.77	3.947	4.05666
852.33	3.94481	4.06094
853.9	3.94261	4.06526
855.46	3.94039	4.0696
857.03	3.93817	4.07396
858.59	3.93593	4.07836
860.16	3.93369	4.08278
861.72	3.93143	4.08722
863.29	3.92917	4.0917
864.85	3.9269	4.0962
866.42	3.92462	4.10073
867.98	3.92233	4.10529
869.55	3.92004	4.10987
871.11	3.91773	4.11448
872.67	3.91542	4.11912
874.24	3.9131	4.12379
875.8	3.91077	4.12848
877.36	3.90844	4.1332
878.92	3.9061	4.13794
880.49	3.90375	4.14272
882.05	3.90139	4.14752
883.61	3.89903	4.15234
885.17	3.89667	4.1572
886.74	3.89429	4.16208
888.3	3.89191	4.16698
889.86	3.88953	4.17192
891.42	3.88714	4.17688
892.98	3.88475	4.18186
894.54	3.88235	4.18688
896.1	3.87995	4.19191
897.66	3.87754	4.19698
899.22	3.87513	4.20207
900.78	3.87271	4.20719
902.34	3.87029	4.21234
903.9	3.86787	4.21751
905.46	3.86544	4.2227
907.02	3.86301	4.22792
908.58	3.86058	4.23317
910.14	3.85815	4.23845
911.7	3.85571	4.24375
913.26	3.85327	4.24907
914.82	3.85083	4.25442
916.37	3.84839	4.2598
917.93	3.84594	4.2652
919.49	3.84349	4.27063
921.05	3.84105	4.27608
922.61	3.8386	4.28156
924.16	3.83615	4.28707
925.72	3.8337	4.29259
927.28	3.83124	4.29815
928.83	3.82879	4.30373
930.39	3.82634	4.30933
931.94	3.82389	4.31496
933.5	3.82143	4.32061
935.06	3.81898	4.32629
936.61	3.81653	4.33199
938.17	3.81408	4.33772
939.72	3.81163	4.34347
941.28	3.80918	4.34925
942.83	3.80673	4.35505
944.38	3.80429	4.36087
945.94	3.80185	4.36672
947.49	3.7994	4.37259
949.05	3.79696	4.37849
950.6	3.79452	4.38441
952.15	3.79209	4.39035
953.71	3.78965	4.39632
955.26	3.78722	4.40231
956.81	3.78479	4.40832
958.36	3.78237	4.41436
959.91	3.77994	4.42042
961.47	3.77752	4.4265
963.02	3.7751	4.43261
964.57	3.77269	4.43873
966.12	3.77028	4.44488
967.67	3.76788	4.45106
969.22	3.76548	4.45725
970.77	3.76308	4.46347
972.32	3.76069	4.46972
973.87	3.7583	4.47598
975.42	3.75591	4.48226
976.97	3.75354	4.48857
978.52	3.75116	4.4949
980.07	3.74879	4.50125
981.62	3.74643	4.50762
983.16	3.74407	4.51402
984.71	3.74171	4.52043
986.26	3.73937	4.52687
987.81	3.73702	4.53333
989.36	3.73469	4.5398
990.9	3.73236	4.5463
992.45	3.73003	4.55282
994	3.72772	4.55936
995.54	3.7254	4.56593
997.09	3.7231	4.57251
1011.2	3.70231	4.63371
1014.5	3.69755	4.64822
1017.8	3.69283	4.66283
1021.1	3.68813	4.67755
1024.4	3.68347	4.69235
1027.7	3.67885	4.70726
1031	3.67426	4.72226
1034.3	3.66971	4.73735
1037.6	3.6652	4.75253
1041	3.66073	4.76781
1044.3	3.6563	4.78317
1047.6	3.65192	4.79863
1050.9	3.64757	4.81417
1054.2	3.64327	4.8298
1057.5	3.63902	4.84551
1060.8	3.6348	4.86131
1064.2	3.63064	4.8772
1067.5	3.62652	4.89316
1070.8	3.62246	4.90921
1074.1	3.61844	4.92534
1077.4	3.61446	4.94155
1080.8	3.61054	4.95783
1084.1	3.60667	4.97419
1087.4	3.60286	4.99063
1090.8	3.59909	5.00714
1094.1	3.59538	5.02373
1097.4	3.59172	5.04039
1100.7	3.58811	5.05712
1104.1	3.58456	5.07391
1107.4	3.58107	5.09078
1110.8	3.57763	5.10772
1114.1	3.57424	5.12472
1117.4	3.57092	5.14179
1120.8	3.56765	5.15892
1124.1	3.56444	5.17611
1127.5	3.56129	5.19337
1130.8	3.55819	5.21069
1134.1	3.55515	5.22807
1137.5	3.55218	5.2455
1140.8	3.54926	5.263
1144.2	3.5464	5.28055
1147.5	3.5436	5.29815
1150.9	3.54087	5.31581
1154.2	3.53819	5.33352
1157.6	3.53558	5.35129
1161	3.53302	5.36911
1164.3	3.53053	5.38697
1167.7	3.5281	5.40488
1171	3.52573	5.42285
1174.4	3.52343	5.44085
1177.7	3.52118	5.45891
1181.1	3.519	5.47701
1184.5	3.51688	5.49515
1187.8	3.51482	5.51333
1191.2	3.51283	5.53156
1194.6	3.51089	5.54982
1197.9	3.50903	5.56813
1201.3	3.50722	5.58647
1204.7	3.50548	5.60485
1208	3.50379	5.62327
1211.4	3.50218	5.64172
1214.8	3.50062	5.66021
1218.2	3.49913	5.67873
1221.5	3.4977	5.69728
1224.9	3.49633	5.71586
1228.3	3.49503	5.73448
1231.7	3.49379	5.75312
1235	3.49261	5.7718
1238.4	3.49149	5.7905
1241.8	3.49044	5.80923
1245.2	3.48945	5.82798
1248.6	3.48852	5.84676
1251.9	3.48765	5.86556
1255.3	3.48685	5.88439
1258.7	3.4861	5.90324
1262.1	3.48542	5.92211
1265.5	3.4848	5.941
1268.9	3.48424	5.95992
1272.3	3.48374	5.97885
1275.6	3.48331	5.9978
1279	3.48293	6.01677
1282.4	3.48262	6.03575
1285.8	3.48236	6.05476
1289.2	3.48217	6.07377
1292.6	3.48203	6.0928
1296	3.48195	6.11185
1299.4	3.48194	6.13091
1302.8	3.48198	6.14998
1306.2	3.48208	6.16906
1309.6	3.48225	6.18816
1313	3.48247	6.20726
1316.4	3.48274	6.22638
1319.8	3.48308	6.2455
1323.2	3.48347	6.26463
1326.6	3.48392	6.28377
1330	3.48443	6.30292
1333.4	3.485	6.32207
1336.8	3.48562	6.34123
1340.2	3.4863	6.3604
1343.6	3.48703	6.37957
1347	3.48782	6.39874
1350.4	3.48867	6.41791
1353.8	3.48957	6.43709
1357.2	3.49052	6.45627
1360.6	3.49153	6.47546
1364.1	3.4926	6.49464
1367.5	3.49372	6.51382
1370.9	3.49489	6.53301
1374.3	3.49611	6.55219
1377.7	3.49739	6.57137
1381.1	3.49872	6.59056
1384.5	3.5001	6.60973
1387.9	3.50154	6.62891
1391.4	3.50303	6.64808
1394.8	3.50457	6.66725
1398.2	3.50615	6.68642
1401.6	3.50779	6.70558
1405	3.50949	6.72473
1408.4	3.51123	6.74388
1411.9	3.51302	6.76303
1415.3	3.51485	6.78217
1418.7	3.51674	6.80129
1422.1	3.51868	6.82042
1425.5	3.52067	6.83953
1429	3.5227	6.85864
1432.4	3.52478	6.87774
1435.8	3.52691	6.89683
1439.2	3.52909	6.91591
1442.6	3.53131	6.93498
1446.1	3.53358	6.95404
1449.5	3.5359	6.97309
1452.9	3.53826	6.99213
1456.3	3.54067	7.01116
1459.8	3.54312	7.03017
1463.2	3.54561	7.04918
1466.6	3.54816	7.06817
1470.1	3.55074	7.08715
1473.5	3.55337	7.10611
1476.9	3.55604	7.12506
1480.3	3.55876	7.144
1483.8	3.56151	7.16293
1487.2	3.56431	7.18184
1490.6	3.56716	7.20073
1494.1	3.57004	7.21961
1497.5	3.57297	7.23848
1500.9	3.57593	7.25733
1504.4	3.57894	7.27616
1507.8	3.58199	7.29498
1511.2	3.58508	7.31378
1514.6	3.5882	7.33256
1518.1	3.59137	7.35133
1521.5	3.59458	7.37008
1524.9	3.59782	7.38881
1528.4	3.60111	7.40753
1531.8	3.60443	7.42622
1535.3	3.60779	7.4449
1538.7	3.61118	7.46356
1542.1	3.61462	7.4822
1545.6	3.61809	7.50082
1549	3.6216	7.51942
1552.4	3.62514	7.53801
1555.9	3.62872	7.55657
1559.3	3.63234	7.57511
1562.7	3.63598	7.59363
1566.2	3.63967	7.61214
1569.6	3.64339	7.63062
1573	3.64714	7.64908
1576.5	3.65093	7.66752
1579.9	3.65476	7.68594
1583.4	3.65861	7.70433
1586.8	3.6625	7.72271
1590.2	3.66642	7.74106
1593.7	3.67037	7.75939
1597.1	3.67436	7.7777
1600.6	3.67838	7.79599
1604	3.68243	7.81425
1607.4	3.68651	7.83249
1610.9	3.69062	7.85071
1614.3	3.69477	7.86891
1617.8	3.69894	7.88708
1621.2	3.70314	7.90523
1624.6	3.70737	7.92335
1628.1	3.71164	7.94145
1631.5	3.71593	7.95953
1635	3.72025	7.97759
1638.4	3.7246	7.99561
1641.8	3.72898	8.01362
1645.3	3.73338	8.0316
1648.7	3.73782	8.04956
1652.2	3.74228	8.06749
1655.6	3.74677	8.08539
1659	3.75128	8.10327
1662.5	3.75583	8.12113
1665.9	3.7604	8.13896
1669.4	3.76499	8.15677
1672.8	3.76961	8.17455
1676.2	3.77426	8.1923
1679.7	3.77893	8.21003
